tau	N_greek	x	epsilon
0.0001	1.0000000000000149	0.5000000000000074	4.934396342684426
0.0051	1.0000000000395504	0.49999366020055974	4.934393881877755
0.010099999999999994	1.000000000166461	0.49995021403757284	4.93435878909124
0.015099999999999964	1.0000000004124774	0.49983366426548714	4.9342111239602655
0.020099999999999934	1.0000000008257632	0.4996092153572095	4.93382493915472
0.025099999999999904	1.0000000014657122	0.4992436423309919	4.933037370124878
0.030099999999999873	1.0000000023965787	0.4987056160639186	4.93166052488444
0.03509999999999998	1.0000000036801135	0.49796600713393285	4.929495682795909
0.04010000000000012	1.000000005369229	0.4969981430352351	4.926349266250631
0.045100000000000265	1.00000000750172	0.4957780007102979	4.922049887681505
0.05010000000000041	1.0000000100935131	0.49428457881458004	4.916465968913579
0.05510000000000055	1.0000000131324311	0.4925001533364074	4.9095233264344955
0.060100000000000695	1.0000000165744114	0.4904102816691994	4.901221791189101
0.06510000000000084	1.00000002034188	0.48800377098150033	4.891650113019546
0.07010000000000098	1.000000024325356	0.4852727123018247	4.88099866792379
0.07510000000000112	1.0000000283894597	0.48221273736844233	4.869569613153735
0.08010000000000127	1.0000000323826412	0.4788232805227417	4.857784090521782
0.08510000000000141	1.0000000361473758	0.47510786497738705	4.846185953432032
0.09010000000000155	1.000000039530178	0.471074539608683	4.835441636530638
0.0951000000000017	1.0000000423904782	0.466736192581987	4.826335762851337
0.10010000000000184	1.0000000446070758	0.46211065217290803	4.819762095562841
0.10510000000000198	1.0000000460818008	0.4572206849050948	4.816709715583044
0.11010000000000213	1.0000000467432708	0.4520940245132568	4.818244531638203
0.11510000000000227	1.0000000465515084	0.44676349164714874	4.825486377948801
0.12010000000000241	1.0000000455031763	0.4412668928560753	4.839582045448126
0.12510000000000254	1.0000000436374958	0.435646691015044	4.861674834134267
0.130100000000002	1.0000000410435181	0.4299496221404014	4.892871451682989
0.13510000000000144	1.0000000378661844	0.4242260700260092	4.93420728288324
0.1401000000000009	1.0000000343095106	0.4185292794817172	4.986611263718455
0.14510000000000034	1.000000030636281	0.41291448113978974	5.050871708568457
0.1500999999999998	1.0000000271633889	0.40743817737904203	5.127604366471195
0.15509999999999924	1.0000000242496057	0.402157649158977	5.2172237111783355
0.1600999999999987	1.000000022275813	0.39713029434155167	5.319918454811499
0.16509999999999814	1.0000000216185263	0.39241291646674537	5.435632355635919
0.1700999999999976	1.0000000226174213	0.3880610523505292	5.5640511247505104
0.17509999999999704	1.0000000255382298	0.3841283335745447	5.7045960590167955
0.18009999999999649	1.0000000305365984	0.38066591688659757	5.856424795125506
0.18509999999999593	1.0000000376280263	0.37772196274654224	6.018439353911059
0.19009999999999538	1.0000000466679875	0.3753413885087868	6.189301322853758
0.19509999999999483	1.0000000573464727	0.3735658499629147	6.367453519342604
0.20009999999999428	1.0000000692016804	0.3724335546214782	6.551147715199419
0.20509999999999373	1.0000000816519279	0.37197897344435743	6.738478099019006
0.21009999999999318	1.000000094042151	0.37223257715121577	6.927419861924013
0.21509999999999263	1.0000001056999608	0.3732206470255548	7.115872056209085
0.22009999999999208	1.0000001159948877	0.3749651886532779	7.301703650243228
0.22509999999999153	1.0000001243909236	0.37748375279560525	7.482801814132688
0.23009999999999098	1.0000001304846755	0.38078941734982985	7.657121346032081
0.23509999999999043	1.0000001340243927	0.3848908442858383	7.8227339126447015
0.24009999999998988	1.0000001349071581	0.3897921197344123	7.977876137816229
0.24509999999998933	1.0000001331534079	0.3954924482209341	8.12099573752324
0.2500999999999888	1.0000001288649962	0.4019857757487882	8.25079470418874
0.2550999999999882	1.0000001221756691	0.40926052615437286	8.366268398484035
0.2600999999999877	1.000000113203835	0.417299376443255	8.466739308700394
0.2650999999999871	1.0000001020173976	0.426078920988514	8.551884548455405
0.2700999999999866	1.0000000886208915	0.4355693728465684	8.621756200518925
0.275099999999986	1.0000000729694605	0.445734263980814	8.676793597505307
0.28009999999998547	1.0000000550093073	0.4565300143287059	8.71782690796727
0.2850999999999849	1.0000000347405347	0.46790546016416906	8.746071474417139
0.29009999999998437	1.0000000122947557	0.47980147755400465	8.763112394552534
0.2950999999999838	0.9999999880131054	0.49215092119742976	8.770878896092183
0.30009999999998327	0.9999999625093042	0.5048787776134279	8.771608376054003
0.3050999999999827	0.9999999367030885	0.5179024260328198	8.767800464992467
0.31009999999998217	0.9999999118112508	0.5311321786639454	8.762161796521667
0.3150999999999816	0.9999998892864628	0.54447203257008	8.757542541826743
0.32009999999998107	0.9999998707041747	0.5578206460950249	8.756866187575412
0.3250999999999805	0.9999998576067565	0.5710725339513357	8.763054397849661
0.33009999999997997	0.9999998513221486	0.5841195887634106	8.77894913535681
0.3350999999999794	0.9999998527811161	0.5968530221178941	8.807234562840975
0.34009999999997886	0.9999998623633778	0.6091652919442866	8.850361504196487
0.3450999999999783	0.9999998797989857	0.620951904017145	8.910477183629293
0.35009999999997776	0.9999999041433134	0.6321131072960416	8.98936274857739
0.3550999999999772	0.999999933833589	0.6425554284792391	9.088380772094737
0.36009999999997666	0.999999966823736	0.6521930234456669	9.208434528458922
0.3650999999999761	1.0000000007793914	0.6609487007246182	9.349940329986648
0.37009999999997556	1.0000000333067258	0.6687547426737857	9.512813625120726
0.375099999999975	1.0000000621849485	0.675553662809952	9.69646925987619
0.38009999999997446	1.0000000855727647	0.6812985407457335	9.899835688649821
0.3850999999999739	1.0000001021616476	0.685952880855203	10.121382148336348
0.39009999999997336	1.0000001112590136	0.6894901693395177	10.359157388585752
0.3950999999999728	1.000000112794377	0.6918932390558008	10.610838310583526
0.40009999999997226	1.000000107250381	0.6931536602303412	10.87378687941873
0.4050999999999717	1.0000000955292212	0.693270943680349	11.145113520768193
0.41009999999997115	1.0000000787761576	0.6922517660331532	11.421745077118663
0.4150999999999706	1.0000000581864297	0.6901094029227098	11.70049576855144
0.42009999999997005	1.0000000348242408	0.686863139544743	11.978139611350205
0.4250999999999695	1.0000000094816164	0.6825376317803076	12.251482535532489
0.43009999999996895	0.9999999826013111	0.6771622945063672	12.517432642636622
0.4350999999999684	0.9999999542758155	0.6707708961441055	12.773067282991626
0.44009999999996785	0.9999999243229916	0.6634014802706609	13.015696078470073
0.4450999999999673	0.9999998924277992	0.65509640102494	13.242918992280334
0.45009999999996675	0.9999998583285299	0.6459024279924627	13.452678386251195
0.4550999999999662	0.9999998220147963	0.6358709912022265	13.643304175213004
0.46009999999996565	0.999999783902681	0.6250584008616231	13.813551156902527
0.4650999999999651	0.9999997449550627	0.613526023696176	13.962627565200428
0.47009999999996455	0.9999997067218834	0.6013403821540957	14.090213995192824
0.475099999999964	0.9999996712849974	0.5885732650190112	14.196472049974789
0.48009999999996344	0.999999641109024	0.5753018443106408	14.282042313022723
0.4850999999999629	0.9999996188130821	0.5616086298742451	14.348031308437536
0.49009999999996234	0.999999606889335	0.5475812580658757	14.395987264790813
0.4950999999999618	0.9999996074028589	0.5333121077872786	14.42786482194057
0.5000999999999612	0.9999996217139224	0.5188977311415459	14.44597914207703
0.5050999999999607	0.9999996502599661	0.5044380734204192	14.45295022837812
0.5100999999999601	0.9999996924269727	0.490035528442615	14.45163862215118
0.5150999999999596	0.9999997465295023	0.4757939792062454	14.445074059769079
0.520099999999959	0.9999998099062964	0.46181766041151934	14.436378925111478
0.5250999999999585	0.999999879121201	0.4482097913021801	14.428688514869066
0.5300999999999579	0.9999999502468753	0.43507107804830364	14.425070416196181
0.5350999999999574	1.0000000191993057	0.42249815778235056	14.428445481907502
0.5400999999999568	1.0000000820847261	0.4105821046662492	14.441512931558782
0.5450999999999563	1.0000001355169665	0.399406973436301	14.46668200715306
0.5500999999999557	1.0000001768699298	0.38904851625972575	14.506012406360487
0.5550999999999552	1.0000002044395426	0.37957331488997365	14.561165320467861
0.5600999999999546	1.000000217501611	0.3710381359614253	14.633366390014729
0.5650999999999541	1.0000002162656905	0.3634893850073074	14.723381480261587
0.5700999999999535	1.0000002017420715	0.35696275980217657	14.831505749847011
0.575099999999953	1.0000001755486496	0.35148315171722727	14.957566005280828
0.5800999999999524	1.0000001396896685	0.34706500114767946	15.10093571930985
0.5850999999999519	1.0000000963386417	0.3437128477548584	15.26056159958198
0.5900999999999513	1.0000000476544857	0.3414220060607371	15.435000399228903
0.5950999999999508	0.999999995648321	0.3401795025933392	15.622464319357128
0.6000999999999502	0.9999999421078011	0.3399650602832252	15.8208731464315
0.6050999999999497	0.9999998885773949	0.34075198890918423	16.02791144736283
0.6100999999999491	0.9999998363861025	0.3425079485435582	16.241089212147703
0.6150999999999486	0.9999997867067073	0.3451956465157668	16.45780444525005
0.620099999999948	0.9999997406298932	0.3487736277002885	16.675406067244804
0.6250999999999475	0.9999996992370669	0.3531970036231671	16.891255560887338
0.6300999999999469	0.9999996636571987	0.35841798556652504	17.102786198806754
0.6350999999999464	0.9999996350941094	0.3643863583853437	17.307558792073223
0.6400999999999458	0.9999996148175414	0.3710498189361558	17.50331300816909
0.6450999999999453	0.9999996041153969	0.37835418958284617	17.688013515373513
0.6500999999999447	0.9999996042086173	0.3862434811956715	17.8598903488102
0.6550999999999442	0.9999996161354109	0.3946598553700892	18.017473009244906
0.6600999999999436	0.9999996406189218	0.4035436475824802	18.15961773848222
0.6650999999999431	0.999999677934123	0.4128334307249566	18.285527394529286
0.6700999999999425	0.9999997277907923	0.42246606521730906	18.394763586491937
0.675099999999942	0.99999978924904	0.43237676974920525	18.48725085133587
0.6800999999999414	0.9999998606816379	0.4424992270208641	18.56327276748737
0.6850999999999409	0.9999999397895163	0.45276573583186513	18.623460034639916
0.6900999999999403	1.0000000236724864	0.4631074324376251	18.668770698456047
0.6950999999999398	1.0000001089528678	0.47345462167596486	18.70046283386728
0.7000999999999392	1.0000001919446893	0.48373716818698775	18.720060201373112
0.7050999999999387	1.0000002688547112	0.49388489000323155	18.729311645668066
0.7100999999999381	1.0000003360010292	0.5038279589010868	18.730145181939978
0.7150999999999376	1.0000003900337247	0.5134973298936517	18.724617827230315
0.720099999999937	1.000000428141215	0.5228252573703658	18.71486232486384
0.7250999999999365	1.0000004482268576	0.5317458351679634	18.70303202539184
0.7300999999999359	1.0000004490455572	0.5401955998858298	18.691245304133844
0.7350999999999354	1.0000004302915564	0.5481142558150642	18.681530921297956
0.7400999999999348	1.00000039263104	0.5554453930791203	18.675775811767448
0.7450999999999343	1.000000337677354	0.5621371135337343	18.675676805370905
0.7500999999999337	1.0000002679118787	0.5681426038471117	18.682697653566855
0.7550999999999332	1.0000001865539465	0.5734206666077999	18.698032577023397
0.7600999999999326	1.000000097386644	0.5779363189630164	18.72257738816148
0.7650999999999321	1.0000000045496098	0.5816612835837836	18.7569090738909
0.7700999999999315	0.9999999123130061	0.5845743007786226	18.801274436943043
0.775099999999931	0.9999998248461777	0.5866613978314726	18.855588094534486
0.7800999999999304	0.9999997459973636	0.5879160151569405	18.919439859178837
0.7850999999999299	0.9999996791000745	0.5883389531719387	18.99211116562593
0.7900999999999293	0.9999996268179886	0.587938112502085	19.0725998740261
0.7950999999999288	0.9999995910350138	0.5867281267827711	19.159652480712257
0.8000999999999282	0.9999995727963793	0.5847300741055171	19.25180269986964
0.8050999999999277	0.9999995723019041	0.581971204678907	19.347415346489996
0.8100999999999271	0.9999995889478546	0.5784845746456421	19.44473422322245
0.8150999999999265	0.9999996214113154	0.5743087022875704	19.54193266401054
0.820099999999926	0.9999996677710031	0.5694871896747445	19.63716537232515
0.8250999999999254	0.9999997256538918	0.5640683254803446	19.728620151169096
0.8300999999999249	0.9999997923952214	0.5581046607718754	19.81456815486834
0.8350999999999243	0.9999998651995848	0.5516525426405156	19.893411314691175
0.8400999999999238	0.9999999412912968	0.5447717474141613	19.963725764640756
0.8450999999999232	1.0000000180396196	0.5375251895824529	20.0243003492145
0.8500999999999227	1.0000000930484125	0.5299786125480227	20.07416929241788
0.8550999999999221	1.0000001642052652	0.5222002572913652	20.11263818929192
0.8600999999999216	1.000000229690238	0.5142605269858652	20.13930264573833
0.865099999999921	1.0000002879482017	0.5062316563457864	20.15405907806287
0.8700999999999205	1.0000003376366637	0.49818741009475453	20.157107395797752
0.8750999999999199	1.0000003775646493	0.49020271683147104	20.14894542063257
0.8800999999999194	1.0000004066384125	0.4823532225658205	20.130354988174307
0.8850999999999188	1.000000423828947	0.47471478559779295	20.10237991245185
0.8900999999999183	1.0000004281763764	0.4673629200712022	20.066296230644923
0.8950999999999177	1.00000041883883	0.4603722084790183	20.023575369892306
0.9000999999999172	1.000000395185354	0.4538156872276175	19.975841123191884
0.9050999999999166	1.000000356924957	0.4477641163609872	19.92482143383275
0.9100999999999161	1.0000003042578975	0.4422852373150927	19.872296195753265
0.9150999999999155	1.0000002380262103	0.4374430480510627	19.820042532482656
0.920099999999915	1.0000001598378598	0.4332969865445643	19.76977907451837
0.9250999999999144	1.0000000721401616	0.42990106908610765	19.723110810408567
0.9300999999999139	0.9999999782209912	0.42730303008067916	19.681476230277937
0.9350999999999133	0.9999998821203598	0.42554355606381594	19.64609849957899
0.9400999999999128	0.9999997884468118	0.4246556717279225	19.617942378694348
0.9450999999999122	0.9999997021053311	0.42466414189382967	19.597678381210184
0.9500999999999117	0.9999996279546851	0.4255849181231723	19.585655447631936
0.9550999999999111	0.9999995704227133	0.4274247673882075	19.581883229585884
0.9600999999999106	0.9999995331202906	0.4301809702586237	19.58602476921039
0.96509999999991	0.9999995184985876	0.4338411338689847	19.597400025711163
0.9700999999999095	0.9999995275929122	0.4383831080169653	19.615000372490755
0.9750999999999089	0.9999995598899969	0.4437751325579081	19.637513819810188
0.9800999999999084	0.999999613343929	0.4499763522402874	19.66336026016966
0.9850999999999078	0.9999996845442385	0.4569374976884344	19.690735569028075
0.9900999999999073	0.9999997690191399	0.464601606702698	19.717663127843768
0.9950999999999067	0.9999998616393376	0.47290484048529313	19.7420511089051
1.0000999999999063	0.9999999570747505	0.48177733510487997	19.76175370682743
1.0050999999999057	1.0000000502475823	0.4911440692758038	19.774634424094877
1.0100999999999052	1.000000136729175	0.5009256990267997	19.7786295171511
1.0150999999999046	1.0000002130383898	0.5110393062260754	19.77180981523208
1.020099999999904	1.0000002768135514	0.521399144036488	19.752439205127736
1.0250999999999035	1.0000003268465212	0.531917313611573	19.719028178921196
1.030099999999903	1.0000003629878045	0.5425043297068821	19.6703810961912
1.0350999999999024	1.0000003859458915	0.553069604590929	19.605636017057513
1.0400999999999019	1.0000003970139466	0.5635218805081587	19.524296131301195
1.0450999999999013	1.0000003977639325	0.5737696325846156	19.426251996064092
1.0500999999999008	1.0000003897530436	0.5837215087535934	19.31179393178058
1.0550999999999002	1.0000003742825139	0.5932867703926307	19.181614116553618
1.0600999999998997	1.0000003522411882	0.6023757300000748	19.036798188071383
1.0650999999998991	1.0000003240549744	0.6109002366338983	18.878806357439878
1.0700999999998986	1.0000002897486064	0.6187742457345181	18.709444193480067
1.075099999999898	1.0000002491066264	0.6259145005521262	18.530823460539015
1.0800999999998975	1.0000002019062593	0.6322413528410251	18.345313561231777
1.085099999999897	1.0000001481837402	0.6376795838518715	18.15548452939633
1.0900999999998964	1.0000000884881752	0.6421593167149665	17.964042821194752
1.0950999999998958	1.0000000240753806	0.64561706781574	17.773761260521326
1.1000999999998953	0.9999999570042608	0.6479967377698111	17.58740486259956
1.1050999999998947	0.999999890111991	0.6492505412147069	17.407654633400764
1.1100999999998942	0.9999998268616197	0.6493398774403062	17.237031511053612
1.1150999999998936	0.9999997710744599	0.6482362571415153	17.077822661099102
1.120099999999893	0.9999997265797318	0.6459223003641508	16.93201224276091
1.1250999999998925	0.9999996968246396	0.6423925215112556	16.801218950285495
1.130099999999892	0.9999996844941937	0.637653822385261	16.686642722653996
1.1350999999998914	0.9999996911907616	0.6317258292267427	16.589022627182583
1.1400999999998909	0.9999997172176887	0.6246409129918707	16.508607611740636
1.1450999999998903	0.9999997614951923	0.6164439481312466	16.445141414254945
1.1500999999998898	0.9999998216198306	0.6071917764103492	16.397862387630155
1.1550999999998892	0.9999998940613938	0.5969524966052809	16.365518434866395
1.1600999999998887	0.9999999744739151	0.5858047654951801	16.346396654768007
1.1650999999998881	1.000000058081391	0.5738368390726379	16.33836688491536
1.1700999999998876	1.0000001400925633	0.561145300177153	16.33893791258535
1.175099999999887	1.0000002160972539	0.5478336121534249	16.34532456795039
1.1800999999998865	1.0000002823997658	0.534010565095809	16.354523490587717
1.185099999999886	1.0000003362533076	0.5197886776631481	16.363395068573926
1.1900999999998854	1.0000003759765075	0.5052825551421046	16.36874887715219
1.1950999999998848	1.0000004009489356	0.49060728442842666	16.367429864115643
1.2000999999998843	1.000000411498099	0.475877061356376	16.356402651954934
1.2050999999998837	1.000000408704362	0.46120393387775627	16.332831547143357
1.2100999999998832	1.000000394161568	0.4466966463430299	16.294154052647972
1.2150999999998826	1.0000003697315072	0.4324596608495934	16.238145987985487
1.220099999999882	1.0000003373262942	0.41859240636096895	16.16297671939507
1.2250999999998815	1.0000002987443735	0.4051887960035584	16.067253452673757
1.230099999999881	1.0000002555742307	0.39233695627532317	15.950053948956862
1.2350999999998804	1.0000002091641818	0.38011916927345807	15.810947384270188
1.2400999999998799	1.0000001606473827	0.3686119497265816	15.650003397439106
1.2450999999998793	1.0000001110053591	0.3578861306027695	15.467789521899908
1.2500999999998788	1.0000000611502817	0.34800692875336503	15.265357327479345
1.2550999999998782	1.0000000120049934	0.33903399590710737	15.044217764079121
1.2600999999998777	0.999999964565519	0.331021535285961	14.806306461945942
1.265099999999877	0.9999999199353845	0.3240183455167313	14.553939878820058
1.2700999999998765	0.9999998793250561	0.31806771689055297	14.28976312588305
1.275099999999876	0.9999998440140729	0.3132072834054964	14.016690470578475
1.2800999999998754	0.9999998152809759	0.3094687360339028	13.737839681499143
1.285099999999875	0.9999997943084682	0.3068773893580787	13.45646136066303
1.2900999999998743	0.9999997820740625	0.30545164897594446	13.175864621370954
1.2950999999998738	0.9999997792398211	0.3052025284856505	12.899340688335506
1.3000999999998732	0.9999997860576607	0.3061333918044646	12.630086395529904
1.3050999999998727	0.9999998023031218	0.30823972373927483	12.371129575075607
1.3100999999998721	0.9999998272472285	0.31150879887155275	12.125257973764292
1.3150999999998716	0.9999998596719657	0.3159194674347356	11.894953457693289
