tau	N_greek	x	epsilon
0.0001	1.0000000000000149	0.5000000000000074	4.934396342684425
0.05010000000000041	1.0000000037033787	0.49935878384151416	4.934395880340414
0.10010000000000184	1.000000013741416	0.497586603437003	4.937078447838903
0.1500999999999998	1.0000000280006904	0.4982238392248777	4.936368961303827
0.20009999999999428	1.000000042693136	0.5003670060924968	4.935149842258345
0.2500999999999888	1.0000000545880028	0.5007060310914244	4.934153764893877
0.30009999999998327	1.0000000607196515	0.5013734056041829	4.9341463218361765
0.35009999999997776	1.0000000597437204	0.5023830163154902	4.937322331972124
0.40009999999997226	1.000000051681837	0.5006146918235674	4.9359436235851915
0.45009999999996675	1.000000038762059	0.4986745132960338	4.935869741805768
0.5000999999999612	1.0000000238504365	0.4988300422288654	4.933660607983747
0.5500999999999557	1.000000010579286	0.4983592262548848	4.934451922621778
0.6000999999999502	1.0000000020434165	0.49830706916185014	4.936816691343941
0.6500999999999447	1.0000000004245448	0.5007255296849469	4.936251712376044
0.7000999999999392	1.000000005883972	0.5019646877701364	4.936022644433626
0.7500999999999337	1.0000000172982133	0.501208824503519	4.933434895825915
0.8000999999999282	1.0000000318772124	0.5013920498432466	4.934882886203253
0.8500999999999227	1.0000000462154202	0.5005710750262733	4.935912363570022
0.9000999999999172	1.0000000567705167	0.4981034010379443	4.93707733890699
0.9500999999999117	1.0000000611841313	0.49796160221234415	4.935602810247542
1.0000999999999063	1.000000058266204	0.49918068593110626	4.933751541281766
1.0500999999999008	1.0000000487677694	0.4992737849184504	4.934894908479447
1.1000999999998953	1.0000000348949774	0.5006592503490859	4.935294147167901
1.1500999999998898	1.000000020031173	0.5025481697777133	4.937739700406968
1.2000999999998843	1.0000000076757	0.5015221247054692	4.9351359200913505
1.2500999999998788	1.0000000008003176	0.5000911464032721	4.934372200702238
1.3000999999998732	1.000000001068715	0.499896170778608	4.934387552321152
1.3500999999998677	1.000000008402511	0.49834556885426845	4.935378607399667
1.4000999999998622	1.0000000210759892	0.49749447480658043	4.937664716552403
1.4500999999998567	1.0000000359621715	0.499485396676684	4.935202071548744
1.5000999999998512	1.0000000496328123	0.5007117258704425	4.934784633390705
1.5500999999998457	1.000000058713265	0.5008494302299585	4.933753325815474
1.6000999999998402	1.0000000611172029	0.5021290196925634	4.935911854977836
1.6500999999998347	1.0000000561787556	0.5017794722003786	4.936924877909759
1.7000999999998292	1.000000045276769	0.4993069102147479	4.935926808802433
1.7500999999998237	1.000000030794932	0.4986547685317101	4.934672473590627
1.8000999999998182	1.0000000163322884	0.49875450197539367	4.933496089564058
1.8500999999998127	1.0000000052583788	0.4980032419145649	4.936263655222456
1.9000999999998072	1.000000000310363	0.4994375853947372	4.936179238085436
1.9500999999998017	1.0000000024393847	0.5017606667346926	4.936803047406003
2.0000999999997964	1.000000011405731	0.5015649715850938	4.93422227234753
2.050099999999902	1.0000000249103989	0.5012055220245882	4.933775287698735
2.1001000000000074	1.0000000398105582	0.5012977361723389	4.935978704911118
2.150100000000113	1.000000052447199	0.4992159289423225	4.936052251085386
2.2001000000002184	1.0000000600661276	0.49762360048922405	4.937171803531255
2.250100000000324	1.000000060512191	0.4987188736749909	4.933993666156353
2.3001000000004295	1.000000053898611	0.4992628319735466	4.934248171371663
2.350100000000535	1.0000000416789985	0.4997079084027696	4.935182004893683
2.4001000000006405	1.0000000269206952	0.5019114764857158	4.936615039491685
2.450100000000746	1.0000000128427742	0.5023303835960811	4.936813340595455
2.5001000000008515	1.0000000031977256	0.5005529491977185	4.934340942680124
2.550100000000957	1.000000000018193	0.5000274680259786	4.934400512468892
2.6001000000010626	1.000000004211657	0.49926260837958536	4.934465150996236
2.650100000001168	1.0000000146131778	0.4975186351442275	4.937301734941666
2.7001000000012736	1.0000000290208177	0.49836191172991795	4.936139151628179
2.750100000001379	1.000000043637518	0.5004256784651713	4.935110392682856
2.8001000000014846	1.0000000552117208	0.5006795575278431	4.934077704929275
2.85010000000159	1.0000000608813238	0.5014694673417485	4.93431898823841
2.9001000000016957	1.0000000594024372	0.5023741760101273	4.937421120868585
2.950100000001801	1.000000050936996	0.5004509209039625	4.935860906679487
3.0001000000019067	1.0000000377626352	0.4986614557903877	4.935742059308595
3.050100000002012	1.0000000228564903	0.49885658309300457	4.9335746406229015
3.1001000000021177	1.0000000098212507	0.4982840692647549	4.93469013556034
3.1501000000022232	1.0000000017051773	0.4983873589352309	4.936798389478778
3.2001000000023287	1.0000000005654672	0.5008758792534248	4.93632761741486
3.2501000000024343	1.0000000065028578	0.5019225756222134	4.935776377766861
3.30010000000254	1.0000000182266526	0.5011840506454192	4.933401494532925
3.3501000000026453	1.000000032899224	0.501434081651619	4.935087136396752
3.400100000002751	1.0000000470815171	0.5004415059638339	4.935898029218605
3.4501000000028563	1.0000000573007173	0.49800337351051965	4.937196376641689
3.500100000002962	1.0000000612127966	0.4980550536079399	4.935314812253605
3.5501000000030674	1.0000000578112993	0.4991979483738701	4.933764942962715
3.600100000003173	1.0000000479281137	0.49926732807548013	4.9349966397260046
3.6501000000032784	1.0000000338839672	0.5008050055103521	4.935403865812062
3.700100000003384	1.0000000190559104	0.5025731577789126	4.93776043172087
3.7501000000034894	1.0000000070144115	0.5013948862013863	4.9349288492728745
3.800100000003595	1.0000000005824246	0.5000896369069734	4.9343599811185435
3.8501000000037005	1.0000000013578605	0.4998735410611842	4.934406147715294
3.900100000003806	1.0000000091137653	0.49821811363896973	4.935628851570599
3.9501000000039115	1.0000000220733143	0.4975515455301788	4.937547770834268
4.000100000004016	1.0000000369660973	0.4996177852675309	4.935132665128312
4.0501000000039	1.0000000504264106	0.5006899649925882	4.934678782637126
4.100100000003783	1.0000000591018803	0.5008898374304842	4.933773006554244
4.1501000000036665	1.000000061018974	0.5022099745351049	4.936202828652922
4.20010000000355	1.0000000555917925	0.5016541056502759	4.936764447646357
4.2501000000034335	1.0000000443708457	0.4992016776601533	4.935931261790142
4.300100000003317	1.0000000297737277	0.49870309524810785	4.934481815383349
4.3501000000032	1.0000000154376831	0.49870862394554644	4.933579994483113
4.400100000003084	1.000000004696737	0.49798340398522956	4.936469285025953
4.450100000002967	1.0000000002355385	0.499601085778004	4.936124318359746
4.500100000002851	1.0000000028483793	0.5018104882003235	4.936753419560477
4.550100000002734	1.0000000122078283	0.5014941324629096	4.934027774935306
4.600100000002618	1.000000025917114	0.5012475115813569	4.933905656276717
4.650100000002501	1.0000000407901686	0.5012575496360059	4.936058779369524
4.700100000002385	1.0000000531475797	0.4990537641318556	4.936173775983478
4.750100000002268	1.0000000603339974	0.49764512134097383	4.936987586633406
4.800100000002152	1.0000000602822747	0.4988003795942958	4.933875126868431
4.850100000002035	1.0000000532210391	0.49922892916994954	4.934349597622416
4.900100000001919	1.000000040709022	0.49979316486131325	4.935209423823063
4.950100000001802	1.0000000259014687	0.5020337265912241	4.936843248864861
5.0001000000016855	1.0000000120174406	0.5022384961818962	4.936542394337859
5.050100000001569	1.0000000027514206	0.500479412431285	4.934300586139184
5.1001000000014525	1.0000000000707379	0.5000531290039765	4.934412515170576
5.150100000001336	1.0000000047484212	0.4991565457279928	4.934552657920332
5.200100000001219	1.0000000155062838	0.4974643840971605	4.937490413293188
5.250100000001103	1.0000000300403398	0.4985049985177117	4.93591887247798
5.300100000000986	1.000000044566914	0.5004712555899229	4.935062542659526
5.35010000000087	1.0000000558081947	0.5006592096868356	4.934014660727197
5.400100000000753	1.0000000610101638	0.5015704827820874	4.934518050063241
5.450100000000637	1.0000000590261096	0.5023496015512214	4.937474504979644
5.50010000000052	1.0000000501708761	0.500289366588493	4.935798265906297
5.550100000000404	1.000000036756179	0.4986605000831302	4.935594986926467
5.600100000000287	1.0000000218705902	0.49887379009781385	4.9335104225594515
5.650100000000171	1.000000009085344	0.4982095288429636	4.934944545172523
5.700100000000054	1.000000001401706	0.498482088103234	4.936752158779647
5.750099999999938	1.0000000007393208	0.5010171697551978	4.936405420578642
5.800099999999821	1.0000000071477788	0.5018717635281256	4.935520081354233
5.8500999999997045	1.0000000191696659	0.501170291357169	4.933391686568792
5.900099999999588	1.0000000339203972	0.5014703362109882	4.935291086816518
5.9500999999994715	1.000000047927209	0.5003016780917641	4.9358867509806945
6.000099999999355	1.0000000578012227	0.49791748679790987	4.937284949211849
6.050099999999238	1.0000000612082842	0.49815184736150925	4.935038230740828
6.100099999999122	1.0000000573252283	0.49920435151716014	4.933793545813024
6.150099999999005	1.0000000470672301	0.4992705717578867	4.9350918506375265
6.200099999998889	1.0000000328705074	0.5009547860108848	4.935535634128792
6.250099999998772	1.0000000180944244	0.502581908903006	4.93773109483091
6.300099999998656	1.0000000063779124	0.5012706167331222	4.934746323398966
6.350099999998539	1.0000000003992666	0.5000968842373452	4.934352351022364
6.400099999998423	1.0000000016812332	0.4998392605921753	4.934427341668543
6.450099999998306	1.0000000098489852	0.4980934832723658	4.935893714457312
6.50009999999819	1.0000000230783328	0.49762346609625213	4.937390765745751
6.550099999998073	1.0000000379652552	0.49974129240667015	4.93507835310312
6.600099999997957	1.000000051196707	0.5006631134712416	4.93457566978784
6.65009999999784	1.000000059457521	0.5009416984067349	4.933810476290955
6.7000999999977235	1.0000000608862332	0.5022821156617022	4.936483982846309
6.750099999997607	1.0000000549793104	0.5015183619292823	4.93659503638754
6.8000999999974905	1.0000000434470675	0.499109699003533	4.935923602405871
6.850099999997374	1.000000028754041	0.4987517804627585	4.934303602024177
6.900099999997257	1.0000000145611179	0.4986534362611932	4.933689535378751
6.950099999997141	1.0000000041647612	0.4979764319879047	4.9366465547371305
7.000099999997024	1.0000000001921212	0.49976826046742356	4.936085619939083
7.050099999996908	1.0000000032909213	0.5018452623800993	4.936668627927293
7.100099999996791	1.0000000130306175	0.5014280055714941	4.933857712230224
7.150099999996675	1.000000026928428	0.5012950633754071	4.934056898339816
7.200099999996558	1.0000000417575	0.5012032052451146	4.936114402323383
7.250099999996442	1.000000053825839	0.49889538991217325	4.936309653274793
7.300099999996325	1.0000000605660324	0.4976803292135733	4.936768843935365
7.350099999996209	1.0000000600189618	0.49887281114568655	4.9337814575785215
7.400099999996092	1.0000000525182273	0.49919401485911585	4.934461804018023
7.450099999995976	1.0000000397291886	0.4998910168966465	4.935235315685854
7.500099999995859	1.0000000248840641	0.5021456305847487	4.937058873073282
7.5500999999957426	1.0000000112154763	0.5021371579718624	4.93626052138101
7.600099999995626	1.0000000023367535	0.5004178224395154	4.934270422907365
7.6500999999955095	1.0000000001577538	0.5000752270642012	4.934431544617897
7.700099999995393	1.0000000053126512	0.4990417577847587	4.934660961220032
7.750099999995276	1.0000000164195726	0.4974248462773388	4.9376382221942645
7.80009999999516	1.0000000310588244	0.4986511646323916	4.935713489412172
7.850099999995043	1.0000000454797608	0.5005041248169577	4.935005897104152
7.900099999994927	1.0000000563766118	0.5006463914988817	4.933964533873489
7.95009999999481	1.000000061106334	0.5016748077063046	4.934742344218707
8.000099999994694	1.0000000586154942	0.5023091009953944	4.937482246846079
8.050099999994577	1.000000049383555	0.5001319588305797	4.935754571089139
8.10009999999446	1.0000000357442398	0.49867050843992494	4.935432208891534
8.150099999994344	1.0000000208940913	0.49888083773454095	4.933467898066111
8.200099999994228	1.0000000083721277	0.4981374726133907	4.935210523777375
8.250099999994111	1.000000001132925	0.4985905485548116	4.9366829963371535
8.300099999993995	1.000000000946691	0.5011478926196995	4.936478971553583
8.350099999993878	1.0000000078177205	0.5018139360630864	4.935260213649193
8.400099999993762	1.0000000201258896	0.5011676068058435	4.933405078676421
8.450099999993645	1.0000000349397495	0.5014991128466972	4.9354896523692995
8.500099999993528	1.0000000487521041	0.5001530507910859	4.935883545492581
8.550099999993412	1.000000058270641	0.4978464931939335	4.937337578089821
8.600099999993295	1.0000000611708348	0.49825011501486177	4.934778329526467
8.650099999993179	1.0000000568088012	0.49920058701176395	4.933837210407938
8.700099999993062	1.0000000461861116	0.4992847157017708	4.935177930388208
8.750099999992946	1.0000000318550293	0.5011067275449154	4.935689450157382
8.80009999999283	1.000000017148646	0.5025745160136345	4.937652029336745
8.850099999992713	1.0000000057667533	0.5011510565113823	4.934588993243788
8.900099999992596	1.0000000002507832	0.5001115549576717	4.934350500197058
8.95009999999248	1.0000000020383555	0.49979283346175785	4.934451545078942
9.000099999992363	1.0000000106080826	0.49797360509702876	4.93616739278786
9.050099999992247	1.000000024089219	0.4977093013665951	4.937199987166514
9.10009999999213	1.0000000389584789	0.4998546330965983	4.935035489696505
9.150099999992014	1.0000000519432055	0.5006329428106511	4.934478000589906
9.200099999991897	1.0000000597798937	0.5010046730375044	4.933867295198368
9.25009999999178	1.0000000607184802	0.5023438466990411	4.936747607876659
9.300099999991664	1.0000000543424623	0.501373856064026	4.936423887859762
9.350099999991548	1.0000000425067206	0.49903148709878203	4.935900054953527
9.400099999991431	1.0000000277365702	0.4987990112469302	4.934140620366239
9.450099999991314	1.0000000137034188	0.4985900087077999	4.933825206343595
9.500099999991198	1.0000000036636612	0.497983283584995	4.93679100631787
9.550099999991081	1.0000000001798588	0.49993716179015457	4.936065356913245
9.600099999990965	1.0000000037661572	0.5018653345649612	4.936549353788821
9.650099999990848	1.0000000138735619	0.5013680937053965	4.93371301820563
9.700099999990732	1.0000000279434642	0.501346623329392	4.93422781562288
9.750099999990615	1.0000000427108446	0.5011345103520564	4.936146415775256
9.800099999990499	1.0000000544813548	0.49874274055857903	4.936455142992661
9.850099999990382	1.000000060762415	0.497728075971654	4.936521765224395
9.900099999990266	1.0000000597221828	0.4989352294012639	4.933711233459056
9.95009999999015	1.0000000517906602	0.4991598867754379	4.93458290543136
10.000099999990033	1.0000000387410957	0.5000008135858883	4.935263386492521
10.050099999989916	1.0000000238697329	0.5022456713850779	4.937253975602238
10.1000999999898	1.000000010437151	0.5020281154249827	4.935975642262072
10.150099999989683	1.0000000019546005	0.500368342737278	4.93424850701894
10.200099999989567	1.0000000002793659	0.5000920733034679	4.934456365051424
10.25009999998945	1.000000005903408	0.4989196245275477	4.9347921428139125
10.300099999989333	1.0000000173516268	0.4974007663022378	4.937740227369006
10.350099999989217	1.0000000320759197	0.4987984633352339	4.935527057545375
10.4000999999891	1.0000000463746281	0.5005249044535056	4.934940965870289
10.450099999988984	1.000000056916108	0.5006423576198881	4.933927073684363
10.500099999988867	1.0000000611699054	0.5017806534986433	4.934989605168109
10.55009999998875	1.000000058171581	0.5022527955051092	4.937445866301695
10.600099999988634	1.00000004857512	0.4999804914969594	4.935727380938916
10.650099999988518	1.000000034728223	0.4986901890525529	4.93525801474476
10.700099999988401	1.000000019928415	0.49887711501417237	4.933447105842662
10.750099999988285	1.000000007682279	0.4980697709448457	4.935482581951573
10.800099999988168	1.0000000008985535	0.4987117879250395	4.936596789452323
10.850099999988052	1.0000000011880947	0.5012667276014091	4.936542002410657
10.900099999987935	1.0000000085118044	0.5017508799578263	4.935002936709331
10.950099999987819	1.0000000210939117	0.5011757933864068	4.933441508624084
11.000099999987702	1.0000000359561378	0.5015188394277323	4.93567767679851
11.050099999987586	1.000000049555978	0.49999723093050175	4.93589287558419
11.100099999987469	1.0000000587076878	0.49779092717444445	4.937350102532216
11.150099999987352	1.0000000611005762	0.4983479601144059	4.934539270442531
11.200099999987236	1.000000056262891	0.4991876234192259	4.933895993643503
11.25009999998712	1.0000000452859377	0.49931071947669775	4.935252859632383
11.300099999987003	1.0000000308378707	0.50125892177819	4.935863895456692
11.350099999986886	1.0000000162203564	0.5025513242025972	4.9375254017724535
11.40009999998677	1.0000000051816413	0.5010378207291403	4.934456421684041
11.450099999986653	1.0000000001368614	0.5001321510418228	4.934355561489069
11.500099999986537	1.000000002428575	0.49973402412397805	4.934479841583381
11.55009999998642	1.0000000113909655	0.49786035796336664	4.936443050663662
11.600099999986304	1.000000025104326	0.4978078847357841	4.936982698820067
11.650099999986187	1.0000000399444207	0.4999567644460895	4.9350002689721855
11.70009999998607	1.000000052665437	0.5006012380865206	4.934388028935423
11.750099999985954	1.0000000600688714	0.5010782094689324	4.933945234160379
11.800099999985838	1.0000000605152781	0.5023936810953294	4.936986196142869
11.850099999985721	1.000000053682217	0.501222377883734	4.936257697471798
11.900099999985605	1.000000041551272	0.4989672706466787	4.9358578520734895
11.950099999985488	1.00000002672206	0.498843057528751	4.9339949105728325
12.000099999985371	1.0000000128652702	0.4985196024853303	4.933987111358465
12.050099999985255	1.0000000031945695	0.49800470047598133	4.9368994230298195
12.100099999985138	1.00000000019868	0.5001057951251745	4.936064239882324
12.150099999985022	1.0000000042730677	0.5018713112080347	4.936397745017681
12.200099999984905	1.000000014736026	0.5013157385687514	4.933593979473837
12.250099999984789	1.000000028961453	0.5014004999640163	4.934416506468383
12.300099999984672	1.0000000436486036	0.5010515744250595	4.936156943059457
12.350099999984556	1.0000000551133086	0.4985976218808657	4.9366043983192975
12.40009999998444	1.0000000609234807	0.49778705348213786	4.93625332217116
12.450099999984323	1.000000059391991	0.49898689861447554	4.933662940832938
12.500099999984206	1.0000000510387839	0.49912837034708263	4.934710416834742
12.55009999998409	1.000000037746212	0.5001216371133981	4.93529770270454
12.600099999983973	1.0000000228599701	0.5023325461979874	4.937420935060295
12.650099999983857	1.0000000096826263	0.5019131938130058	4.935695140914202
12.70009999998374	1.0000000016057018	0.5003309007743539	4.934233460794185
12.750099999983624	1.0000000004357208	0.5001020711900405	4.934485463472357
12.800099999983507	1.0000000065198869	0.4987916983874702	4.934947545128676
12.85009999998339	1.0000000183008029	0.49739265444721475	4.937793086396347
12.900099999983274	1.0000000330912924	0.49894492859959755	4.93536221245065
12.950099999983157	1.0000000472502513	0.5005344858430197	4.934869053430444
13.000099999983041	1.0000000574257963	0.5006481342973502	4.933902056305039
13.050099999982924	1.000000061200832	0.5018861845660799	4.935256387483804
13.100099999982808	1.0000000576955528	0.5021810463536186	4.937368566299984
13.150099999982691	1.0000000477457276	0.49983665723965653	4.935713172993114
13.200099999982575	1.0000000337093649	0.49871805153313226	4.935077026457946
13.250099999982458	1.000000018974986	0.4988622968610817	4.933448277584441
13.300099999982342	1.000000007016597	0.4980082250363027	4.9357545210238225
13.350099999982225	1.00000000069814	0.49884464695170033	4.93649996703373
13.400099999982109	1.000000001463929	0.5013725700221504	4.9365885139563614
